# xPDFsuite Configuration #
[PDF]
wavelength = 0.1
dataformat = Qnm
inputfile = sub_20161114-235343_Ag0_ct_180_2c77c1_0001.chi
backgroundfile = sub_20161115-005612_kapton_lastOnPE1_5min_ct_300_a9064b_0001.chi
mode = xray
bgscale = 1.68779815599
composition = AgAuLaB6
outputtype = gr
qmaxinst = 25.0
qmin = 0.1
qmax = 24.998963948
rmax = 100.0
rmin = 0.0
rstep = 0.01
rpoly = 0.9

[Misc]
inputdir = /home/soham/Documents/CurrentClean/AgAu_newest/chi
savedir = /home/soham/Documents/CurrentClean/AgAu_newest/gr
backgroundfilefull = /home/soham/Documents/CurrentClean/AgAu_newest/chi/sub_20161115-005612_kapton_lastOnPE1_5min_ct_300_a9064b_0001.chi

#### start data
#S 1
#L r($\AA$)  G($\AA^{-2}$)
0 0
0.01 -0.0008463
0.02 -0.00163729
0.03 -0.00232578
0.04 -0.00287068
0.05 -0.00323938
0.06 -0.00340965
0.07 -0.00337087
0.08 -0.00312062
0.09 -0.00266409
0.1 -0.00204567
0.11 -0.00130226
0.12 -0.000477693
0.13 0.000379935
0.14 0.00122114
0.15 0.00199806
0.16 0.00266104
0.17 0.0031675
0.18 0.00349917
0.19 0.00364137
0.2 0.00358989
0.21 0.00335021
0.22 0.00293575
0.23 0.00236526
0.24 0.00165199
0.25 0.00081912
0.26 -0.000118933
0.27 -0.00116521
0.28 -0.00233914
0.29 -0.00367983
0.3 -0.00524829
0.31 -0.00712829
0.32 -0.00947153
0.33 -0.0123896
0.34 -0.0160157
0.35 -0.0204951
0.36 -0.0259673
0.37 -0.0325556
0.38 -0.0403532
0.39 -0.0494154
0.4 -0.0598454
0.41 -0.0714208
0.42 -0.0839574
0.43 -0.0971749
0.44 -0.110691
0.45 -0.124018
0.46 -0.136564
0.47 -0.147582
0.48 -0.156081
0.49 -0.161323
0.5 -0.16241
0.51 -0.158431
0.52 -0.148492
0.53 -0.131753
0.54 -0.107463
0.55 -0.074594
0.56 -0.0325604
0.57 0.0183934
0.58 0.0782549
0.59 0.146761
0.6 0.223382
0.61 0.307318
0.62 0.397499
0.63 0.492823
0.64 0.591349
0.65 0.691105
0.66 0.790135
0.67 0.886382
0.68 0.977745
0.69 1.06214
0.7 1.13755
0.71 1.201
0.72 1.25151
0.73 1.28788
0.74 1.30907
0.75 1.3144
0.76 1.30355
0.77 1.27661
0.78 1.23394
0.79 1.17524
0.8 1.10328
0.81 1.01968
0.82 0.926316
0.83 0.825281
0.84 0.718817
0.85 0.609245
0.86 0.498947
0.87 0.39053
0.88 0.286138
0.89 0.187686
0.9 0.0968373
0.91 0.0149652
0.92 -0.0568815
0.93 -0.117998
0.94 -0.167479
0.95 -0.205351
0.96 -0.232615
0.97 -0.249998
0.98 -0.258499
0.99 -0.259349
1 -0.253967
1.01 -0.243905
1.02 -0.230707
1.03 -0.216361
1.04 -0.202599
1.05 -0.190992
1.06 -0.182998
1.07 -0.179928
1.08 -0.182916
1.09 -0.1929
1.1 -0.211363
1.11 -0.238173
1.12 -0.273469
1.13 -0.317245
1.14 -0.369275
1.15 -0.429131
1.16 -0.496195
1.17 -0.56974
1.18 -0.649139
1.19 -0.732726
1.2 -0.819301
1.21 -0.907595
1.22 -0.99629
1.23 -1.08405
1.24 -1.16955
1.25 -1.25134
1.26 -1.32789
1.27 -1.39837
1.28 -1.4618
1.29 -1.51741
1.3 -1.56456
1.31 -1.60285
1.32 -1.6321
1.33 -1.65188
1.34 -1.66259
1.35 -1.66527
1.36 -1.66071
1.37 -1.64992
1.38 -1.63411
1.39 -1.61461
1.4 -1.59286
1.41 -1.57041
1.42 -1.54896
1.43 -1.52995
1.44 -1.51469
1.45 -1.50431
1.46 -1.49972
1.47 -1.50158
1.48 -1.51025
1.49 -1.52642
1.5 -1.54913
1.51 -1.57768
1.52 -1.61113
1.53 -1.64832
1.54 -1.68785
1.55 -1.72822
1.56 -1.76778
1.57 -1.80462
1.58 -1.83733
1.59 -1.86462
1.6 -1.88541
1.61 -1.89892
1.62 -1.90471
1.63 -1.90272
1.64 -1.89302
1.65 -1.87625
1.66 -1.85405
1.67 -1.82788
1.68 -1.79943
1.69 -1.77059
1.7 -1.74332
1.71 -1.71959
1.72 -1.70171
1.73 -1.69149
1.74 -1.69002
1.75 -1.69833
1.76 -1.71701
1.77 -1.74622
1.78 -1.78565
1.79 -1.83458
1.8 -1.89238
1.81 -1.95682
1.82 -2.02582
1.83 -2.09731
1.84 -2.16909
1.85 -2.23899
1.86 -2.30495
1.87 -2.36512
1.88 -2.41707
1.89 -2.46033
1.9 -2.49428
1.91 -2.51876
1.92 -2.53409
1.93 -2.54104
1.94 -2.54084
1.95 -2.53496
1.96 -2.52526
1.97 -2.51422
1.98 -2.50394
1.99 -2.49647
2 -2.49368
2.01 -2.49718
2.02 -2.50824
2.03 -2.52807
2.04 -2.55724
2.05 -2.59503
2.06 -2.6408
2.07 -2.69346
2.08 -2.75158
2.09 -2.81345
2.1 -2.87719
2.11 -2.9407
2.12 -3.00183
2.13 -3.0589
2.14 -3.11046
2.15 -3.15546
2.16 -3.19324
2.17 -3.22365
2.18 -3.24699
2.19 -3.26362
2.2 -3.27534
2.21 -3.28391
2.22 -3.29123
2.23 -3.2993
2.24 -3.31017
2.25 -3.32576
2.26 -3.34778
2.27 -3.37846
2.28 -3.41793
2.29 -3.4665
2.3 -3.52391
2.31 -3.58937
2.32 -3.66156
2.33 -3.73871
2.34 -3.81867
2.35 -3.89874
2.36 -3.97618
2.37 -4.04848
2.38 -4.1133
2.39 -4.16862
2.4 -4.21285
2.41 -4.24491
2.42 -4.26373
2.43 -4.26928
2.44 -4.26306
2.45 -4.2463
2.46 -4.22057
2.47 -4.18762
2.48 -4.14923
2.49 -4.10696
2.5 -4.06181
2.51 -4.0143
2.52 -3.96392
2.53 -3.90899
2.54 -3.8466
2.55 -3.77256
2.56 -3.68133
2.57 -3.56611
2.58 -3.41533
2.59 -3.22122
2.6 -2.9744
2.61 -2.66461
2.62 -2.28163
2.63 -1.81565
2.64 -1.25772
2.65 -0.599594
2.66 0.174642
2.67 1.05845
2.68 2.05248
2.69 3.15452
2.7 4.35937
2.71 5.65873
2.72 7.04119
2.73 8.49373
2.74 9.99931
2.75 11.5328
2.76 13.0722
2.77 14.594
2.78 16.074
2.79 17.4878
2.8 18.8113
2.81 20.0151
2.82 21.0745
2.83 21.9776
2.84 22.7088
2.85 23.2562
2.86 23.6111
2.87 23.7689
2.88 23.7289
2.89 23.4812
2.9 23.041
2.91 22.4259
2.92 21.6499
2.93 20.7299
2.94 19.6846
2.95 18.5342
2.96 17.3001
2.97 16.0001
2.98 14.6624
2.99 13.3081
3 11.9563
3.01 10.6241
3.02 9.32693
3.03 8.0778
3.04 6.88799
3.05 5.77189
3.06 4.72909
3.07 3.76253
3.08 2.87307
3.09 2.05978
3.1 1.32013
3.11 0.650395
3.12 0.0477141
3.13 -0.491467
3.14 -0.977413
3.15 -1.41577
3.16 -1.81196
3.17 -2.17097
3.18 -2.49729
3.19 -2.79475
3.2 -3.06533
3.21 -3.31184
3.22 -3.5373
3.23 -3.74294
3.24 -3.92958
3.25 -4.0977
3.26 -4.24761
3.27 -4.37955
3.28 -4.49252
3.29 -4.58775
3.3 -4.6664
3.31 -4.72936
3.32 -4.77778
3.33 -4.81309
3.34 -4.83694
3.35 -4.85117
3.36 -4.85724
3.37 -4.85802
3.38 -4.85556
3.39 -4.85172
3.4 -4.8482
3.41 -4.84643
3.42 -4.84756
3.43 -4.85248
3.44 -4.86198
3.45 -4.87581
3.46 -4.8937
3.47 -4.91515
3.48 -4.9394
3.49 -4.96556
3.5 -4.99262
3.51 -5.01948
3.52 -5.04495
3.53 -5.06812
3.54 -5.08821
3.55 -5.10458
3.56 -5.1168
3.57 -5.12461
3.58 -5.12795
3.59 -5.12668
3.6 -5.12114
3.61 -5.11187
3.62 -5.09929
3.63 -5.08379
3.64 -5.06573
3.65 -5.04536
3.66 -5.02284
3.67 -4.99796
3.68 -4.9706
3.69 -4.94039
3.7 -4.90673
3.71 -4.86884
3.72 -4.8258
3.73 -4.77655
3.74 -4.71996
3.75 -4.65388
3.76 -4.5778
3.77 -4.49061
3.78 -4.39121
3.79 -4.27863
3.8 -4.15204
3.81 -4.01075
3.82 -3.85402
3.83 -3.68048
3.84 -3.4914
3.85 -3.28694
3.86 -3.06748
3.87 -2.8336
3.88 -2.58612
3.89 -2.32601
3.9 -2.05409
3.91 -1.77171
3.92 -1.48122
3.93 -1.18446
3.94 -0.883452
3.95 -0.580412
3.96 -0.277744
3.97 0.0219707
3.98 0.315473
3.99 0.599583
4 0.87153
4.01 1.12822
4.02 1.36652
4.03 1.58333
4.04 1.77563
4.05 1.94054
4.06 2.07277
4.07 2.17154
4.08 2.23555
4.09 2.26329
4.1 2.25375
4.11 2.20642
4.12 2.12138
4.13 1.99927
4.14 1.83785
4.15 1.64282
4.16 1.41664
4.17 1.16227
4.18 0.883034
4.19 0.582626
4.2 0.26496
4.21 -0.0660846
4.22 -0.406473
4.23 -0.751166
4.24 -1.09632
4.25 -1.43834
4.26 -1.77398
4.27 -2.10039
4.28 -2.41515
4.29 -2.71566
4.3 -3.00006
4.31 -3.26828
4.32 -3.51987
4.33 -3.75475
4.34 -3.9732
4.35 -4.17577
4.36 -4.36321
4.37 -4.53559
4.38 -4.69435
4.39 -4.84102
4.4 -4.97652
4.41 -5.10167
4.42 -5.21718
4.43 -5.32357
4.44 -5.42123
4.45 -5.50969
4.46 -5.58957
4.47 -5.66096
4.48 -5.7237
4.49 -5.77756
4.5 -5.82226
4.51 -5.85751
4.52 -5.88297
4.53 -5.89735
4.54 -5.90132
4.55 -5.89453
4.56 -5.87662
4.57 -5.84712
4.58 -5.80544
4.59 -5.75084
4.6 -5.68198
4.61 -5.59665
4.62 -5.49434
4.63 -5.3731
4.64 -5.23065
4.65 -5.06436
4.66 -4.87126
4.67 -4.64812
4.68 -4.38975
4.69 -4.09166
4.7 -3.75215
4.71 -3.36768
4.72 -2.93499
4.73 -2.45119
4.74 -1.91394
4.75 -1.32157
4.76 -0.669498
4.77 0.0401988
4.78 0.804125
4.79 1.61968
4.8 2.48308
4.81 3.38928
4.82 4.33206
4.83 5.30403
4.84 6.29771
4.85 7.30105
4.86 8.30337
4.87 9.29365
4.88 10.2605
4.89 11.1924
4.9 12.0777
4.91 12.9048
4.92 13.6558
4.93 14.3267
4.94 14.9086
4.95 15.3939
4.96 15.7762
4.97 16.0506
4.98 16.2138
4.99 16.2606
5 16.186
5.01 15.9999
5.02 15.7056
5.03 15.3078
5.04 14.8123
5.05 14.2264
5.06 13.5581
5.07 12.8132
5.08 12.0027
5.09 11.1404
5.1 10.2368
5.11 9.30237
5.12 8.34733
5.13 7.38176
5.14 6.41525
5.15 5.45803
5.16 4.51895
5.17 3.60511
5.18 2.72301
5.19 1.87828
5.2 1.07561
5.21 0.318781
5.22 -0.389336
5.23 -1.04195
5.24 -1.64208
5.25 -2.18999
5.26 -2.68609
5.27 -3.13138
5.28 -3.52735
5.29 -3.87587
5.3 -4.17866
5.31 -4.43499
5.32 -4.65148
5.33 -4.83068
5.34 -4.97511
5.35 -5.08716
5.36 -5.16907
5.37 -5.22284
5.38 -5.24945
5.39 -5.24966
5.4 -5.22646
5.41 -5.18081
5.42 -5.11338
5.43 -5.02469
5.44 -4.91505
5.45 -4.78466
5.46 -4.63252
5.47 -4.45885
5.48 -4.26476
5.49 -4.05045
5.5 -3.81626
5.51 -3.5627
5.52 -3.29049
5.53 -3.00059
5.54 -2.6931
5.55 -2.3705
5.56 -2.0351
5.57 -1.68899
5.58 -1.33455
5.59 -0.974381
5.6 -0.6113
5.61 -0.248291
5.62 0.110908
5.63 0.46307
5.64 0.804945
5.65 1.13327
5.66 1.44482
5.67 1.73646
5.68 2.00521
5.69 2.24778
5.7 2.45925
5.71 2.63954
5.72 2.78659
5.73 2.89861
5.74 2.97413
5.75 3.012
5.76 3.01141
5.77 2.97049
5.78 2.88804
5.79 2.767
5.8 2.60813
5.81 2.41253
5.82 2.18172
5.83 1.91755
5.84 1.62224
5.85 1.29689
5.86 0.945148
5.87 0.57152
5.88 0.179492
5.89 -0.227235
5.9 -0.644794
5.91 -1.06919
5.92 -1.49637
5.93 -1.92183
5.94 -2.34119
5.95 -2.7506
5.96 -3.14632
5.97 -3.52487
5.98 -3.88298
5.99 -4.21774
6 -4.52654
6.01 -4.80415
6.02 -5.05137
6.03 -5.26687
6.04 -5.44963
6.05 -5.59897
6.06 -5.71453
6.07 -5.79623
6.08 -5.84359
6.09 -5.85489
6.1 -5.83345
6.11 -5.77991
6.12 -5.69492
6.13 -5.57917
6.14 -5.43331
6.15 -5.25798
6.16 -5.0526
6.17 -4.81718
6.18 -4.55399
6.19 -4.26355
6.2 -3.9464
6.21 -3.60317
6.22 -3.23462
6.23 -2.84172
6.24 -2.42434
6.25 -1.98468
6.26 -1.52562
6.27 -1.04948
6.28 -0.559012
6.29 -0.0573794
6.3 0.451812
6.31 0.964549
6.32 1.47597
6.33 1.98088
6.34 2.47428
6.35 2.95097
6.36 3.4057
6.37 3.83325
6.38 4.22854
6.39 4.58667
6.4 4.89865
6.41 5.1644
6.42 5.38061
6.43 5.54461
6.44 5.65442
6.45 5.70885
6.46 5.70746
6.47 5.64935
6.48 5.5328
6.49 5.36422
6.5 5.14634
6.51 4.88245
6.52 4.5764
6.53 4.23246
6.54 3.85522
6.55 3.44852
6.56 3.01768
6.57 2.56931
6.58 2.10837
6.59 1.63962
6.6 1.16761
6.61 0.696619
6.62 0.230569
6.63 -0.226197
6.64 -0.670402
6.65 -1.09968
6.66 -1.51171
6.67 -1.90455
6.68 -2.27657
6.69 -2.62649
6.7 -2.95328
6.71 -3.25407
6.72 -3.52994
6.73 -3.78094
6.74 -4.00687
6.75 -4.20767
6.76 -4.38337
6.77 -4.5341
6.78 -4.65997
6.79 -4.75913
6.8 -4.83443
6.81 -4.88643
6.82 -4.91583
6.83 -4.92349
6.84 -4.91039
6.85 -4.87768
6.86 -4.82626
6.87 -4.75699
6.88 -4.67295
6.89 -4.576
6.9 -4.46814
6.91 -4.3515
6.92 -4.22829
6.93 -4.10079
6.94 -3.9713
6.95 -3.8424
6.96 -3.71639
6.97 -3.59534
6.98 -3.48117
6.99 -3.37563
7 -3.28022
7.01 -3.19621
7.02 -3.12548
7.03 -3.06833
7.04 -3.02465
7.05 -2.99447
7.06 -2.9775
7.07 -2.97318
7.08 -2.98071
7.09 -2.999
7.1 -3.02751
7.11 -3.06386
7.12 -3.10629
7.13 -3.15301
7.14 -3.20216
7.15 -3.25182
7.16 -3.29998
7.17 -3.3446
7.18 -3.38296
7.19 -3.41337
7.2 -3.4338
7.21 -3.4422
7.22 -3.43652
7.23 -3.41469
7.24 -3.37462
7.25 -3.31355
7.26 -3.22815
7.27 -3.11777
7.28 -2.98026
7.29 -2.81349
7.3 -2.61535
7.31 -2.38382
7.32 -2.11694
7.33 -1.81093
7.34 -1.46407
7.35 -1.07698
7.36 -0.64878
7.37 -0.178957
7.38 0.332503
7.39 0.88508
7.4 1.47766
7.41 2.11106
7.42 2.78077
7.43 3.4823
7.44 4.21155
7.45 4.96367
7.46 5.73313
7.47 6.51372
7.48 7.29864
7.49 8.07954
7.5 8.84818
7.51 9.59648
7.52 10.3162
7.53 10.9991
7.54 11.637
7.55 12.2222
7.56 12.7463
7.57 13.1969
7.58 13.5736
7.59 13.8713
7.6 14.086
7.61 14.2147
7.62 14.2556
7.63 14.208
7.64 14.0692
7.65 13.8384
7.66 13.5245
7.67 13.1313
7.68 12.6639
7.69 12.128
7.7 11.5299
7.71 10.8767
7.72 10.1738
7.73 9.43019
7.74 8.65612
7.75 7.85944
7.76 7.04788
7.77 6.2289
7.78 5.40958
7.79 4.59653
7.8 3.79719
7.81 3.0169
7.82 2.25997
7.83 1.5304
7.84 0.831537
7.85 0.166045
7.86 -0.464018
7.87 -1.05718
7.88 -1.60878
7.89 -2.12196
7.9 -2.59699
7.91 -3.03431
7.92 -3.4347
7.93 -3.79917
7.94 -4.12891
7.95 -4.42475
7.96 -4.68614
7.97 -4.91747
7.98 -5.1203
7.99 -5.29624
8 -5.44688
8.01 -5.57379
8.02 -5.6785
8.03 -5.7618
8.04 -5.82486
8.05 -5.87041
8.06 -5.89982
8.07 -5.91446
8.08 -5.91561
8.09 -5.90455
8.1 -5.88248
8.11 -5.85007
8.12 -5.80872
8.13 -5.7599
8.14 -5.70457
8.15 -5.64365
8.16 -5.57797
8.17 -5.50826
8.18 -5.43518
8.19 -5.3591
8.2 -5.28066
8.21 -5.20024
8.22 -5.11803
8.23 -5.03411
8.24 -4.94845
8.25 -4.86088
8.26 -4.77113
8.27 -4.67845
8.28 -4.58255
8.29 -4.48274
8.3 -4.37826
8.31 -4.26827
8.32 -4.15181
8.33 -4.02789
8.34 -3.89527
8.35 -3.7522
8.36 -3.59833
8.37 -3.43268
8.38 -3.25432
8.39 -3.06247
8.4 -2.85649
8.41 -2.63592
8.42 -2.39992
8.43 -2.1483
8.44 -1.88236
8.45 -1.60284
8.46 -1.31082
8.47 -1.00771
8.48 -0.695317
8.49 -0.375769
8.5 -0.0514253
8.51 0.274437
8.52 0.598543
8.53 0.917581
8.54 1.22809
8.55 1.52653
8.56 1.80933
8.57 2.07301
8.58 2.31203
8.59 2.52448
8.6 2.708
8.61 2.86019
8.62 2.97909
8.63 3.06325
8.64 3.1117
8.65 3.12394
8.66 3.0968
8.67 3.03471
8.68 2.93912
8.69 2.81196
8.7 2.65566
8.71 2.47307
8.72 2.26739
8.73 2.04173
8.74 1.79944
8.75 1.54589
8.76 1.285
8.77 1.02067
8.78 0.756725
8.79 0.49679
8.8 0.244285
8.81 0.00297768
8.82 -0.223829
8.83 -0.434365
8.84 -0.626614
8.85 -0.798946
8.86 -0.950121
8.87 -1.07929
8.88 -1.18596
8.89 -1.26853
8.9 -1.32802
8.91 -1.36581
8.92 -1.38281
8.93 -1.38016
8.94 -1.35922
8.95 -1.32154
8.96 -1.26884
8.97 -1.202
8.98 -1.12415
8.99 -1.03752
9 -0.944208
9.01 -0.846308
9.02 -0.745916
9.03 -0.64508
9.04 -0.545808
9.05 -0.45048
9.06 -0.36065
9.07 -0.277901
9.08 -0.203639
9.09 -0.139077
9.1 -0.0852121
9.11 -0.0428137
9.12 -0.0127596
9.13 0.00411258
9.14 0.00872404
9.15 0.0013521
9.16 -0.0174904
9.17 -0.0470699
9.18 -0.0864514
9.19 -0.134522
9.2 -0.190316
9.21 -0.252264
9.22 -0.3185
9.23 -0.387496
9.24 -0.457713
9.25 -0.527634
9.26 -0.595795
9.27 -0.660811
9.28 -0.721005
9.29 -0.775283
9.3 -0.822811
9.31 -0.862767
9.32 -0.89449
9.33 -0.917485
9.34 -0.93142
9.35 -0.936128
9.36 -0.930762
9.37 -0.916262
9.38 -0.893047
9.39 -0.86158
9.4 -0.82246
9.41 -0.776408
9.42 -0.724274
9.43 -0.666975
9.44 -0.605396
9.45 -0.541196
9.46 -0.475684
9.47 -0.410257
9.48 -0.346388
9.49 -0.285613
9.5 -0.229508
9.51 -0.179924
9.52 -0.138935
9.53 -0.107609
9.54 -0.0873814
9.55 -0.0795585
9.56 -0.085275
9.57 -0.105454
9.58 -0.140764
9.59 -0.192421
9.6 -0.260363
9.61 -0.34345
9.62 -0.440928
9.63 -0.551667
9.64 -0.674168
9.65 -0.806576
9.66 -0.946714
9.67 -1.0923
9.68 -1.24007
9.69 -1.38697
9.7 -1.53002
9.71 -1.66624
9.72 -1.7927
9.73 -1.90664
9.74 -2.00551
9.75 -2.08522
9.76 -2.14535
9.77 -2.18464
9.78 -2.2022
9.79 -2.19762
9.8 -2.17097
9.81 -2.12281
9.82 -2.05386
9.83 -1.96438
9.84 -1.858
9.85 -1.73688
9.86 -1.60338
9.87 -1.45997
9.88 -1.30917
9.89 -1.15347
9.9 -0.995208
9.91 -0.836793
9.92 -0.680203
9.93 -0.526947
9.94 -0.378173
9.95 -0.234645
9.96 -0.0967273
9.97 0.0356096
9.98 0.162522
9.99 0.284982
10 0.40436
10.01 0.522054
10.02 0.639656
10.03 0.758905
10.04 0.88162
10.05 1.00965
10.06 1.1455
10.07 1.29069
10.08 1.44662
10.09 1.61467
10.1 1.79601
10.11 1.9916
10.12 2.20213
10.13 2.42801
10.14 2.67094
10.15 2.9292
10.16 3.20227
10.17 3.4894
10.18 3.78955
10.19 4.10139
10.2 4.42336
10.21 4.75373
10.22 5.09053
10.23 5.43068
10.24 5.77154
10.25 6.11022
10.26 6.44363
10.27 6.7685
10.28 7.08137
10.29 7.37788
10.3 7.65343
10.31 7.90529
10.32 8.12972
10.33 8.32306
10.34 8.48181
10.35 8.60264
10.36 8.68251
10.37 8.71588
10.38 8.70112
10.39 8.63831
10.4 8.52628
10.41 8.36442
10.42 8.15273
10.43 7.89185
10.44 7.58303
10.45 7.22456
10.46 6.82213
10.47 6.3798
10.48 5.90121
10.49 5.39039
10.5 4.85173
10.51 4.28986
10.52 3.70957
10.53 3.11487
10.54 2.51237
10.55 1.90677
10.56 1.30258
10.57 0.70404
10.58 0.115052
10.59 -0.460841
10.6 -1.02007
10.61 -1.55855
10.62 -2.07543
10.63 -2.56892
10.64 -3.0376
10.65 -3.48041
10.66 -3.89662
10.67 -4.28574
10.68 -4.64629
10.69 -4.97781
10.7 -5.28193
10.71 -5.55877
10.72 -5.80847
10.73 -6.03119
10.74 -6.22705
10.75 -6.39613
10.76 -6.53673
10.77 -6.64958
10.78 -6.73562
10.79 -6.79477
10.8 -6.82694
10.81 -6.83208
10.82 -6.81017
10.83 -6.76124
10.84 -6.68315
10.85 -6.57808
10.86 -6.44686
10.87 -6.29005
10.88 -6.10839
10.89 -5.90275
10.9 -5.67419
10.91 -5.42384
10.92 -5.15138
10.93 -4.86047
10.94 -4.55285
10.95 -4.23038
10.96 -3.89504
10.97 -3.54892
10.98 -3.19422
10.99 -2.8331
11 -2.46802
11.01 -2.10184
11.02 -1.73701
11.03 -1.37603
11.04 -1.02141
11.05 -0.675642
11.06 -0.341211
11.07 -0.0213422
11.08 0.281156
11.09 0.564776
11.1 0.827354
11.11 1.06687
11.12 1.28148
11.13 1.46953
11.14 1.6296
11.15 1.75845
11.16 1.85615
11.17 1.92316
11.18 1.95928
11.19 1.96461
11.2 1.93962
11.21 1.88505
11.22 1.802
11.23 1.68955
11.24 1.55168
11.25 1.39065
11.26 1.20864
11.27 1.00796
11.28 0.791047
11.29 0.56044
11.3 0.318625
11.31 0.0677218
11.32 -0.188767
11.33 -0.448415
11.34 -0.708907
11.35 -0.968066
11.36 -1.22386
11.37 -1.47444
11.38 -1.71785
11.39 -1.95207
11.4 -2.17628
11.41 -2.38936
11.42 -2.59029
11.43 -2.7782
11.44 -2.95233
11.45 -3.11201
11.46 -3.25587
11.47 -3.38335
11.48 -3.49479
11.49 -3.58979
11.5 -3.66801
11.51 -3.72914
11.52 -3.77293
11.53 -3.79915
11.54 -3.80634
11.55 -3.79514
11.56 -3.76605
11.57 -3.71912
11.58 -3.65447
11.59 -3.57233
11.6 -3.47304
11.61 -3.35702
11.62 -3.22337
11.63 -3.07423
11.64 -2.91054
11.65 -2.73324
11.66 -2.54337
11.67 -2.34208
11.68 -2.13065
11.69 -1.91035
11.7 -1.68225
11.71 -1.44869
11.72 -1.21129
11.73 -0.971772
11.74 -0.731892
11.75 -0.493452
11.76 -0.25828
11.77 -0.0284594
11.78 0.193711
11.79 0.406796
11.8 0.609046
11.81 0.798788
11.82 0.97445
11.83 1.13459
11.84 1.27791
11.85 1.40226
11.86 1.50681
11.87 1.59181
11.88 1.6569
11.89 1.70203
11.9 1.72742
11.91 1.73359
11.92 1.72134
11.93 1.69055
11.94 1.64368
11.95 1.58281
11.96 1.50982
11.97 1.42676
11.98 1.33577
11.99 1.23909
12 1.13895
12.01 1.03765
12.02 0.937605
12.03 0.840743
12.04 0.748811
12.05 0.66332
12.06 0.585515
12.07 0.516364
12.08 0.456701
12.09 0.407586
12.1 0.368249
12.11 0.338476
12.12 0.317838
12.13 0.305734
12.14 0.301437
12.15 0.304145
12.16 0.313243
12.17 0.327997
12.18 0.34735
12.19 0.370776
12.2 0.397934
12.21 0.428685
12.22 0.463118
12.23 0.501552
12.24 0.544842
12.25 0.593786
12.26 0.649144
12.27 0.711996
12.28 0.783495
12.29 0.864806
12.3 0.957051
12.31 1.06124
12.32 1.17929
12.33 1.31108
12.34 1.45659
12.35 1.61572
12.36 1.78802
12.37 1.97265
12.38 2.16838
12.39 2.37357
12.4 2.58676
12.41 2.8046
12.42 3.0244
12.43 3.24323
12.44 3.45801
12.45 3.66556
12.46 3.86268
12.47 4.04587
12.48 4.21076
12.49 4.35573
12.5 4.47828
12.51 4.57623
12.52 4.64778
12.53 4.69154
12.54 4.70653
12.55 4.69102
12.56 4.64444
12.57 4.56904
12.58 4.4657
12.59 4.3357
12.6 4.18065
12.61 4.00249
12.62 3.8034
12.63 3.58477
12.64 3.34992
12.65 3.10225
12.66 2.84447
12.67 2.57928
12.68 2.30935
12.69 2.03726
12.7 1.76547
12.71 1.49669
12.72 1.23309
12.73 0.976518
12.74 0.728705
12.75 0.491161
12.76 0.265204
12.77 0.0519554
12.78 -0.147601
12.79 -0.331265
12.8 -0.499836
12.81 -0.652893
12.82 -0.790133
12.83 -0.911363
12.84 -1.01648
12.85 -1.10545
12.86 -1.17791
12.87 -1.23311
12.88 -1.27242
12.89 -1.29601
12.9 -1.30408
12.91 -1.29684
12.92 -1.27455
12.93 -1.23753
12.94 -1.18549
12.95 -1.11877
12.96 -1.0387
12.97 -0.945897
12.98 -0.8411
12.99 -0.725166
13 -0.599098
13.01 -0.464045
13.02 -0.320907
13.03 -0.171599
13.04 -0.0180572
13.05 0.137899
13.06 0.294312
13.07 0.449109
13.08 0.600127
13.09 0.745139
13.1 0.880973
13.11 1.00579
13.12 1.11757
13.13 1.21426
13.14 1.29399
13.15 1.35509
13.16 1.39612
13.17 1.41578
13.18 1.41122
13.19 1.38408
13.2 1.33428
13.21 1.26213
13.22 1.16828
13.23 1.05372
13.24 0.919785
13.25 0.767635
13.26 0.598669
13.27 0.416308
13.28 0.222828
13.29 0.020603
13.3 -0.187947
13.31 -0.400408
13.32 -0.614425
13.33 -0.827598
13.34 -1.03754
13.35 -1.24243
13.36 -1.44058
13.37 -1.63055
13.38 -1.81112
13.39 -1.98131
13.4 -2.14036
13.41 -2.28686
13.42 -2.4209
13.43 -2.54267
13.44 -2.65213
13.45 -2.74932
13.46 -2.83437
13.47 -2.90741
13.48 -2.96859
13.49 -3.01698
13.5 -3.05365
13.51 -3.07875
13.52 -3.0923
13.53 -3.09425
13.54 -3.08453
13.55 -3.06304
13.56 -3.02957
13.57 -2.98306
13.58 -2.9246
13.59 -2.85425
13.6 -2.7722
13.61 -2.67874
13.62 -2.57432
13.63 -2.45957
13.64 -2.33501
13.65 -2.20143
13.66 -2.06068
13.67 -1.91415
13.68 -1.76336
13.69 -1.60998
13.7 -1.45579
13.71 -1.30265
13.72 -1.15274
13.73 -1.00823
13.74 -0.87086
13.75 -0.742453
13.76 -0.624734
13.77 -0.51929
