# xPDFsuite Configuration #
[PDF]
wavelength = 0.1
dataformat = Qnm
inputfile = sub_20161115-002440_Ag100_ct_180_c73701_0001.chi
backgroundfile = sub_20161115-005612_kapton_lastOnPE1_5min_ct_300_a9064b_0001.chi
mode = xray
bgscale = 1.60467018598
composition = AgAuLaB6
outputtype = gr
qmaxinst = 25.0
qmin = 0.1
qmax = 24.998963948
rmax = 100.0
rmin = 0.0
rstep = 0.01
rpoly = 0.9

[Misc]
inputdir = /home/soham/Documents/CurrentClean/AgAu_newest/chi
savedir = /home/soham/Documents/CurrentClean/AgAu_newest/gr
backgroundfilefull = /home/soham/Documents/CurrentClean/AgAu_newest/chi/sub_20161115-005612_kapton_lastOnPE1_5min_ct_300_a9064b_0001.chi

#### start data
#S 1
#L r($\AA$)  G($\AA^{-2}$)
0 0
0.01 -0.000950113
0.02 -0.00183813
0.03 -0.00261106
0.04 -0.00322278
0.05 -0.00363667
0.06 -0.00382778
0.07 -0.00378421
0.08 -0.00350324
0.09 -0.00299075
0.1 -0.00229665
0.11 -0.00146249
0.12 -0.000537637
0.13 0.000423611
0.14 0.00136533
0.15 0.00223324
0.16 0.00297082
0.17 0.00352925
0.18 0.00388723
0.19 0.00402728
0.2 0.00394379
0.21 0.00364227
0.22 0.00313768
0.23 0.00245174
0.24 0.00160121
0.25 0.000616567
0.26 -0.000479411
0.27 -0.00168074
0.28 -0.00299625
0.29 -0.00445273
0.3 -0.00609689
0.31 -0.00799583
0.32 -0.0102735
0.33 -0.0130214
0.34 -0.0163471
0.35 -0.0203651
0.36 -0.0251807
0.37 -0.0308786
0.38 -0.0375109
0.39 -0.0450874
0.4 -0.0536282
0.41 -0.0628998
0.42 -0.0726792
0.43 -0.0826547
0.44 -0.0924232
0.45 -0.101491
0.46 -0.10928
0.47 -0.11507
0.48 -0.117924
0.49 -0.117244
0.5 -0.112274
0.51 -0.102279
0.52 -0.0865851
0.53 -0.0646079
0.54 -0.035889
0.55 0.000203658
0.56 0.0438388
0.57 0.0944643
0.58 0.151689
0.59 0.214877
0.6 0.283151
0.61 0.355395
0.62 0.430279
0.63 0.506246
0.64 0.581372
0.65 0.653839
0.66 0.721822
0.67 0.783525
0.68 0.837235
0.69 0.881385
0.7 0.914614
0.71 0.934684
0.72 0.941683
0.73 0.935415
0.74 0.915891
0.75 0.883507
0.76 0.839031
0.77 0.783591
0.78 0.718575
0.79 0.645243
0.8 0.566458
0.81 0.484337
0.82 0.401055
0.83 0.318765
0.84 0.239521
0.85 0.165201
0.86 0.0976765
0.87 0.0387571
0.88 -0.0111566
0.89 -0.051549
0.9 -0.0823005
0.91 -0.103683
0.92 -0.11634
0.93 -0.121252
0.94 -0.11944
0.95 -0.112619
0.96 -0.102794
0.97 -0.091704
0.98 -0.0810715
0.99 -0.0725279
1 -0.0675454
1.01 -0.0673759
1.02 -0.0734646
1.03 -0.0862802
1.04 -0.105906
1.05 -0.132276
1.06 -0.165011
1.07 -0.203443
1.08 -0.24666
1.09 -0.293557
1.1 -0.343001
1.11 -0.393365
1.12 -0.443335
1.13 -0.491705
1.14 -0.537405
1.15 -0.579557
1.16 -0.617506
1.17 -0.650792
1.18 -0.678911
1.19 -0.702464
1.2 -0.721866
1.21 -0.737731
1.22 -0.750834
1.23 -0.762058
1.24 -0.77234
1.25 -0.782645
1.26 -0.793979
1.27 -0.807063
1.28 -0.822467
1.29 -0.840566
1.3 -0.861522
1.31 -0.885278
1.32 -0.911564
1.33 -0.93999
1.34 -0.969811
1.35 -1.00015
1.36 -1.03018
1.37 -1.05903
1.38 -1.08591
1.39 -1.11008
1.4 -1.13095
1.41 -1.14783
1.42 -1.16068
1.43 -1.16966
1.44 -1.17503
1.45 -1.17726
1.46 -1.17701
1.47 -1.17505
1.48 -1.17227
1.49 -1.1697
1.5 -1.16832
1.51 -1.16896
1.52 -1.17233
1.53 -1.17897
1.54 -1.18922
1.55 -1.20319
1.56 -1.22081
1.57 -1.24192
1.58 -1.2656
1.59 -1.29106
1.6 -1.31741
1.61 -1.34368
1.62 -1.36884
1.63 -1.39195
1.64 -1.412
1.65 -1.4281
1.66 -1.43997
1.67 -1.44738
1.68 -1.45035
1.69 -1.44917
1.7 -1.44435
1.71 -1.43667
1.72 -1.42703
1.73 -1.4167
1.74 -1.40696
1.75 -1.39899
1.76 -1.39395
1.77 -1.39284
1.78 -1.39651
1.79 -1.40556
1.8 -1.42079
1.81 -1.44192
1.82 -1.46849
1.83 -1.49992
1.84 -1.53537
1.85 -1.57379
1.86 -1.61395
1.87 -1.65455
1.88 -1.69403
1.89 -1.73107
1.9 -1.76454
1.91 -1.79347
1.92 -1.81714
1.93 -1.83509
1.94 -1.84719
1.95 -1.8535
1.96 -1.85422
1.97 -1.85063
1.98 -1.84374
1.99 -1.83473
2 -1.82487
2.01 -1.81546
2.02 -1.80777
2.03 -1.80308
2.04 -1.80254
2.05 -1.80661
2.06 -1.81566
2.07 -1.82976
2.08 -1.84866
2.09 -1.87182
2.1 -1.89841
2.11 -1.92746
2.12 -1.95752
2.13 -1.98718
2.14 -2.01508
2.15 -2.03993
2.16 -2.06059
2.17 -2.07609
2.18 -2.08572
2.19 -2.08851
2.2 -2.0848
2.21 -2.07498
2.22 -2.05962
2.23 -2.03955
2.24 -2.01582
2.25 -1.98964
2.26 -1.9623
2.27 -1.93527
2.28 -1.90988
2.29 -1.88722
2.3 -1.86819
2.31 -1.85346
2.32 -1.84341
2.33 -1.83815
2.34 -1.83762
2.35 -1.84156
2.36 -1.8489
2.37 -1.85883
2.38 -1.87041
2.39 -1.8827
2.4 -1.8948
2.41 -1.90592
2.42 -1.91534
2.43 -1.92255
2.44 -1.92748
2.45 -1.93019
2.46 -1.93091
2.47 -1.92999
2.48 -1.92788
2.49 -1.92497
2.5 -1.92152
2.51 -1.91758
2.52 -1.91275
2.53 -1.90619
2.54 -1.89648
2.55 -1.88155
2.56 -1.85868
2.57 -1.82446
2.58 -1.77306
2.59 -1.70035
2.6 -1.60129
2.61 -1.47026
2.62 -1.30152
2.63 -1.08936
2.64 -0.828368
2.65 -0.513323
2.66 -0.134503
2.67 0.305669
2.68 0.808767
2.69 1.37491
2.7 2.00262
2.71 2.68873
2.72 3.42835
2.73 4.21586
2.74 5.04366
2.75 5.89815
2.76 6.76787
2.77 7.64034
2.78 8.50235
2.79 9.34024
2.8 10.1403
2.81 10.8859
2.82 11.5622
2.83 12.1606
2.84 12.6708
2.85 13.0843
2.86 13.3943
2.87 13.5961
2.88 13.6871
2.89 13.6593
2.9 13.5188
2.91 13.2735
2.92 12.9294
2.93 12.4944
2.94 11.9774
2.95 11.3888
2.96 10.7395
2.97 10.0379
2.98 9.30071
2.99 8.5402
3 7.76758
3.01 6.99342
3.02 6.22742
3.03 5.47823
3.04 4.75368
3.05 4.06315
3.06 3.40898
3.07 2.79465
3.08 2.22247
3.09 1.69366
3.1 1.20847
3.11 0.766274
3.12 0.366973
3.13 0.0100099
3.14 -0.30997
3.15 -0.595615
3.16 -0.849706
3.17 -1.07506
3.18 -1.27443
3.19 -1.45047
3.2 -1.60469
3.21 -1.7397
3.22 -1.85856
3.23 -1.96309
3.24 -2.05493
3.25 -2.13556
3.26 -2.2063
3.27 -2.26836
3.28 -2.3224
3.29 -2.36992
3.3 -2.4121
3.31 -2.4499
3.32 -2.48419
3.33 -2.51583
3.34 -2.54559
3.35 -2.5742
3.36 -2.60229
3.37 -2.63047
3.38 -2.65911
3.39 -2.68851
3.4 -2.71878
3.41 -2.74994
3.42 -2.7819
3.43 -2.81443
3.44 -2.84723
3.45 -2.87986
3.46 -2.91191
3.47 -2.94297
3.48 -2.97265
3.49 -3.00059
3.5 -3.02651
3.51 -3.05014
3.52 -3.07128
3.53 -3.09011
3.54 -3.10674
3.55 -3.12136
3.56 -3.13423
3.57 -3.14566
3.58 -3.15595
3.59 -3.16541
3.6 -3.17435
3.61 -3.18301
3.62 -3.19149
3.63 -3.19983
3.64 -3.2079
3.65 -3.21549
3.66 -3.22225
3.67 -3.22759
3.68 -3.23092
3.69 -3.23165
3.7 -3.22906
3.71 -3.22242
3.72 -3.211
3.73 -3.19407
3.74 -3.17098
3.75 -3.14038
3.76 -3.10235
3.77 -3.05647
3.78 -3.00241
3.79 -2.93989
3.8 -2.86872
3.81 -2.78878
3.82 -2.69984
3.83 -2.60127
3.84 -2.49381
3.85 -2.37749
3.86 -2.25233
3.87 -2.11838
3.88 -1.97571
3.89 -1.82442
3.9 -1.66434
3.91 -1.49554
3.92 -1.31892
3.93 -1.13501
3.94 -0.944473
3.95 -0.748216
3.96 -0.547356
3.97 -0.343261
3.98 -0.13758
3.99 0.0674947
4 0.269712
4.01 0.466665
4.02 0.655772
4.03 0.834323
4.04 0.999545
4.05 1.14866
4.06 1.27727
4.07 1.3837
4.08 1.46616
4.09 1.52275
4.1 1.55201
4.11 1.5529
4.12 1.52491
4.13 1.46808
4.14 1.3802
4.15 1.26546
4.16 1.12565
4.17 0.963004
4.18 0.780184
4.19 0.580185
4.2 0.36626
4.21 0.141685
4.22 -0.0900658
4.23 -0.324744
4.24 -0.559047
4.25 -0.789898
4.26 -1.01451
4.27 -1.23046
4.28 -1.43571
4.29 -1.62808
4.3 -1.80607
4.31 -1.9698
4.32 -2.11904
4.33 -2.25392
4.34 -2.37491
4.35 -2.48271
4.36 -2.57825
4.37 -2.66196
4.38 -2.73541
4.39 -2.8002
4.4 -2.85744
4.41 -2.90818
4.42 -2.95337
4.43 -2.9938
4.44 -3.03015
4.45 -3.06268
4.46 -3.09204
4.47 -3.11856
4.48 -3.14242
4.49 -3.1637
4.5 -3.18247
4.51 -3.19876
4.52 -3.21259
4.53 -3.22372
4.54 -3.23242
4.55 -3.23869
4.56 -3.24247
4.57 -3.24368
4.58 -3.24213
4.59 -3.2375
4.6 -3.22921
4.61 -3.21626
4.62 -3.19793
4.63 -3.17299
4.64 -3.13987
4.65 -3.09674
4.66 -3.04146
4.67 -2.97163
4.68 -2.88365
4.69 -2.7741
4.7 -2.64098
4.71 -2.48128
4.72 -2.29207
4.73 -2.07058
4.74 -1.81431
4.75 -1.52112
4.76 -1.1867
4.77 -0.811164
4.78 -0.395637
4.79 0.059384
4.8 0.552591
4.81 1.08184
4.82 1.64415
4.83 2.23567
4.84 2.85347
4.85 3.48964
4.86 4.13763
4.87 4.79063
4.88 5.44138
4.89 6.08232
4.9 6.70568
4.91 7.30341
4.92 7.86415
4.93 8.38308
4.94 8.85329
4.95 9.26845
4.96 9.62291
4.97 9.91182
4.98 10.1312
4.99 10.276
5 10.3407
5.01 10.3301
5.02 10.2445
5.03 10.0853
5.04 9.85506
5.05 9.5571
5.06 9.1957
5.07 8.77333
5.08 8.29649
5.09 7.77466
5.1 7.21472
5.11 6.62385
5.12 6.0094
5.13 5.37874
5.14 4.73916
5.15 4.0981
5.16 3.4631
5.17 2.84037
5.18 2.23556
5.19 1.65369
5.2 1.09912
5.21 0.575468
5.22 0.0856389
5.23 -0.364774
5.24 -0.777318
5.25 -1.15182
5.26 -1.48841
5.27 -1.7878
5.28 -2.05124
5.29 -2.28042
5.3 -2.47706
5.31 -2.6414
5.32 -2.77887
5.33 -2.8921
5.34 -2.98368
5.35 -3.05613
5.36 -3.11181
5.37 -3.15288
5.38 -3.18084
5.39 -3.19704
5.4 -3.20353
5.41 -3.20119
5.42 -3.19055
5.43 -3.17187
5.44 -3.14511
5.45 -3.11003
5.46 -3.06564
5.47 -3.01129
5.48 -2.94669
5.49 -2.87108
5.5 -2.78371
5.51 -2.6839
5.52 -2.57106
5.53 -2.44475
5.54 -2.30366
5.55 -2.14838
5.56 -1.97947
5.57 -1.79734
5.58 -1.60265
5.59 -1.39625
5.6 -1.17927
5.61 -0.953
5.62 -0.718402
5.63 -0.478071
5.64 -0.233984
5.65 0.0117741
5.66 0.25699
5.67 0.499336
5.68 0.736397
5.69 0.965534
5.7 1.1832
5.71 1.38758
5.72 1.57617
5.73 1.74651
5.74 1.89625
5.75 2.02317
5.76 2.12521
5.77 2.19948
5.78 2.24339
5.79 2.25748
5.8 2.24085
5.81 2.19297
5.82 2.11373
5.83 2.0034
5.84 1.86272
5.85 1.69127
5.86 1.49129
5.87 1.26619
5.88 1.01849
5.89 0.751027
5.9 0.466943
5.91 0.169621
5.92 -0.137383
5.93 -0.450588
5.94 -0.765578
5.95 -1.0786
5.96 -1.38616
5.97 -1.68498
5.98 -1.97202
5.99 -2.24455
6 -2.50018
6.01 -2.73486
6.02 -2.94873
6.03 -3.14067
6.04 -3.30989
6.05 -3.45592
6.06 -3.57859
6.07 -3.67797
6.08 -3.7539
6.09 -3.80538
6.1 -3.83481
6.11 -3.84269
6.12 -3.82949
6.13 -3.79558
6.14 -3.74125
6.15 -3.66665
6.16 -3.571
6.17 -3.45374
6.18 -3.31592
6.19 -3.15727
6.2 -2.97752
6.21 -2.77644
6.22 -2.55389
6.23 -2.30989
6.24 -2.04342
6.25 -1.75555
6.26 -1.44807
6.27 -1.12229
6.28 -0.779913
6.29 -0.423064
6.3 -0.0542828
6.31 0.32349
6.32 0.707108
6.33 1.09215
6.34 1.47454
6.35 1.85013
6.36 2.21467
6.37 2.56387
6.38 2.89351
6.39 3.19947
6.4 3.47483
6.41 3.7186
6.42 3.92773
6.43 4.09962
6.44 4.23221
6.45 4.32392
6.46 4.37378
6.47 4.3804
6.48 4.34161
6.49 4.26159
6.5 4.14167
6.51 3.98364
6.52 3.78975
6.53 3.56258
6.54 3.30506
6.55 3.01935
6.56 2.70897
6.57 2.37904
6.58 2.0332
6.59 1.67512
6.6 1.30844
6.61 0.936739
6.62 0.563484
6.63 0.192329
6.64 -0.173267
6.65 -0.530485
6.66 -0.876653
6.67 -1.20934
6.68 -1.52637
6.69 -1.82585
6.7 -2.10612
6.71 -2.36398
6.72 -2.59971
6.73 -2.81292
6.74 -3.00312
6.75 -3.1701
6.76 -3.31388
6.77 -3.4347
6.78 -3.53292
6.79 -3.60727
6.8 -3.66079
6.81 -3.69446
6.82 -3.7094
6.83 -3.70681
6.84 -3.68794
6.85 -3.65411
6.86 -3.60631
6.87 -3.54545
6.88 -3.47383
6.89 -3.39276
6.9 -3.30349
6.91 -3.20722
6.92 -3.10514
6.93 -2.99839
6.94 -2.88794
6.95 -2.77501
6.96 -2.66085
6.97 -2.54649
6.98 -2.43298
6.99 -2.32137
7 -2.2127
7.01 -2.10803
7.02 -2.00882
7.03 -1.91606
7.04 -1.83058
7.05 -1.75336
7.06 -1.68531
7.07 -1.62726
7.08 -1.57993
7.09 -1.54391
7.1 -1.52075
7.11 -1.50979
7.12 -1.51091
7.13 -1.52393
7.14 -1.54844
7.15 -1.58379
7.16 -1.62911
7.17 -1.68335
7.18 -1.74565
7.19 -1.81358
7.2 -1.88535
7.21 -1.95899
7.22 -2.03237
7.23 -2.10324
7.24 -2.16923
7.25 -2.22761
7.26 -2.27516
7.27 -2.30991
7.28 -2.32933
7.29 -2.33091
7.3 -2.31218
7.31 -2.27077
7.32 -2.20436
7.33 -2.10926
7.34 -1.98319
7.35 -1.82571
7.36 -1.63521
7.37 -1.41031
7.38 -1.14992
7.39 -0.853293
7.4 -0.520019
7.41 -0.147479
7.42 0.262125
7.43 0.706623
7.44 1.18437
7.45 1.69314
7.46 2.23012
7.47 2.79188
7.48 3.37438
7.49 3.97399
7.5 4.58355
7.51 5.19709
7.52 5.80831
7.53 6.41055
7.54 6.99691
7.55 7.56031
7.56 8.09316
7.57 8.5849
7.58 9.03163
7.59 9.42708
7.6 9.76552
7.61 10.0419
7.62 10.2519
7.63 10.3922
7.64 10.4578
7.65 10.4448
7.66 10.3579
7.67 10.1983
7.68 9.9679
7.69 9.66978
7.7 9.30794
7.71 8.88721
7.72 8.41057
7.73 7.88562
7.74 7.3216
7.75 6.7256
7.76 6.10488
7.77 5.46672
7.78 4.81826
7.79 4.16642
7.8 3.51845
7.81 2.88085
7.82 2.25891
7.83 1.65739
7.84 1.08038
7.85 0.531303
7.86 0.0129069
7.87 -0.472734
7.88 -0.920745
7.89 -1.3335
7.9 -1.71096
7.91 -2.05338
7.92 -2.36143
7.93 -2.63609
7.94 -2.87864
7.95 -3.09002
7.96 -3.27007
7.97 -3.4231
7.98 -3.55089
7.99 -3.65522
8 -3.73787
8.01 -3.80059
8.02 -3.84512
8.03 -3.87256
8.04 -3.88436
8.05 -3.88316
8.06 -3.8705
8.07 -3.8479
8.08 -3.81684
8.09 -3.77878
8.1 -3.73514
8.11 -3.68717
8.12 -3.63645
8.13 -3.58444
8.14 -3.53238
8.15 -3.48142
8.16 -3.43262
8.17 -3.38694
8.18 -3.3452
8.19 -3.30852
8.2 -3.27718
8.21 -3.25142
8.22 -3.23137
8.23 -3.21702
8.24 -3.20813
8.25 -3.2043
8.26 -3.20491
8.27 -3.20945
8.28 -3.21649
8.29 -3.22485
8.3 -3.23322
8.31 -3.24015
8.32 -3.24408
8.33 -3.24336
8.34 -3.23609
8.35 -3.21981
8.36 -3.19329
8.37 -3.15478
8.38 -3.10259
8.39 -3.03514
8.4 -2.95096
8.41 -2.84876
8.42 -2.72663
8.43 -2.58329
8.44 -2.41942
8.45 -2.23489
8.46 -2.02988
8.47 -1.805
8.48 -1.5612
8.49 -1.2999
8.5 -1.02201
8.51 -0.730469
8.52 -0.428541
8.53 -0.11925
8.54 0.194075
8.55 0.507849
8.56 0.818291
8.57 1.12148
8.58 1.41217
8.59 1.68677
8.6 1.94168
8.61 2.1733
8.62 2.37834
8.63 2.55383
8.64 2.69726
8.65 2.80649
8.66 2.87654
8.67 2.91005
8.68 2.90686
8.69 2.86742
8.7 2.79277
8.71 2.68454
8.72 2.54491
8.73 2.37589
8.74 2.17967
8.75 1.96196
8.76 1.7266
8.77 1.47761
8.78 1.2191
8.79 0.955243
8.8 0.69016
8.81 0.428162
8.82 0.173614
8.83 -0.0701731
8.84 -0.300012
8.85 -0.513066
8.86 -0.706878
8.87 -0.879394
8.88 -1.02897
8.89 -1.15272
8.9 -1.25057
8.91 -1.32306
8.92 -1.37029
8.93 -1.39268
8.94 -1.39102
8.95 -1.36639
8.96 -1.32014
8.97 -1.2523
8.98 -1.16638
8.99 -1.06471
9 -0.949487
9.01 -0.823033
9.02 -0.687748
9.03 -0.546091
9.04 -0.400543
9.05 -0.25373
9.06 -0.108424
9.07 0.0329983
9.08 0.168254
9.09 0.295184
9.1 0.411779
9.11 0.516209
9.12 0.606407
9.13 0.680143
9.14 0.737355
9.15 0.777217
9.16 0.799184
9.17 0.802997
9.18 0.788693
9.19 0.756604
9.2 0.706543
9.21 0.639528
9.22 0.557684
9.23 0.46248
9.24 0.355602
9.25 0.238923
9.26 0.114473
9.27 -0.0155958
9.28 -0.149115
9.29 -0.283393
9.3 -0.416037
9.31 -0.544792
9.32 -0.667479
9.33 -0.782034
9.34 -0.886542
9.35 -0.979274
9.36 -1.05737
9.37 -1.12059
9.38 -1.16814
9.39 -1.19939
9.4 -1.21404
9.41 -1.21209
9.42 -1.1939
9.43 -1.15999
9.44 -1.11036
9.45 -1.04784
9.46 -0.974126
9.47 -0.891214
9.48 -0.801318
9.49 -0.706859
9.5 -0.610406
9.51 -0.514749
9.52 -0.423069
9.53 -0.337976
9.54 -0.26206
9.55 -0.197748
9.56 -0.147244
9.57 -0.112468
9.58 -0.094998
9.59 -0.0970541
9.6 -0.119337
9.61 -0.161112
9.62 -0.22206
9.63 -0.301371
9.64 -0.397754
9.65 -0.509452
9.66 -0.634285
9.67 -0.770262
9.68 -0.913639
9.69 -1.06096
9.7 -1.2089
9.71 -1.35406
9.72 -1.49309
9.73 -1.62272
9.74 -1.7399
9.75 -1.84013
9.76 -1.92218
9.77 -1.98422
9.78 -2.02479
9.79 -2.0429
9.8 -2.0381
9.81 -2.01043
9.82 -1.96014
9.83 -1.88685
9.84 -1.79406
9.85 -1.68368
9.86 -1.55793
9.87 -1.41924
9.88 -1.27023
9.89 -1.11358
9.9 -0.951907
9.91 -0.788109
9.92 -0.624955
9.93 -0.464719
9.94 -0.309428
9.95 -0.160829
9.96 -0.0203525
9.97 0.1109
9.98 0.231571
9.99 0.341367
10 0.440744
10.01 0.530025
10.02 0.609837
10.03 0.68108
10.04 0.744907
10.05 0.802696
10.06 0.855806
10.07 0.906431
10.08 0.956573
10.09 1.00823
10.1 1.06348
10.11 1.12441
10.12 1.19315
10.13 1.27179
10.14 1.36373
10.15 1.46989
10.16 1.59199
10.17 1.73159
10.18 1.89003
10.19 2.06835
10.2 2.26728
10.21 2.48758
10.22 2.73049
10.23 2.99362
10.24 3.27588
10.25 3.57566
10.26 3.8908
10.27 4.21867
10.28 4.5561
10.29 4.8995
10.3 5.24427
10.31 5.58551
10.32 5.9184
10.33 6.23787
10.34 6.53879
10.35 6.81597
10.36 7.06436
10.37 7.27674
10.38 7.44873
10.39 7.57775
10.4 7.66033
10.41 7.69368
10.42 7.67565
10.43 7.60489
10.44 7.48078
10.45 7.29926
10.46 7.06488
10.47 6.78064
10.48 6.4492
10.49 6.07389
10.5 5.65857
10.51 5.2076
10.52 4.72566
10.53 4.21573
10.54 3.68601
10.55 3.14174
10.56 2.58807
10.57 2.02999
10.58 1.47227
10.59 0.919357
10.6 0.375626
10.61 -0.154141
10.62 -0.667565
10.63 -1.16195
10.64 -1.63505
10.65 -2.08504
10.66 -2.5105
10.67 -2.91039
10.68 -3.28281
10.69 -3.62694
10.7 -3.9442
10.71 -4.23466
10.72 -4.49853
10.73 -4.73617
10.74 -4.94798
10.75 -5.13442
10.76 -5.29442
10.77 -5.42923
10.78 -5.54026
10.79 -5.62798
10.8 -5.69285
10.81 -5.7353
10.82 -5.75574
10.83 -5.75456
10.84 -5.73031
10.85 -5.68491
10.86 -5.61903
10.87 -5.53302
10.88 -5.42725
10.89 -5.30208
10.9 -5.1579
10.91 -4.99503
10.92 -4.81232
10.93 -4.61207
10.94 -4.39486
10.95 -4.16135
10.96 -3.9123
10.97 -3.64856
10.98 -3.37115
10.99 -3.0809
11 -2.77877
11.01 -2.46723
11.02 -2.14801
11.03 -1.82303
11.04 -1.49444
11.05 -1.16456
11.06 -0.835884
11.07 -0.511397
11.08 -0.19433
11.09 0.112651
11.1 0.406607
11.11 0.684613
11.12 0.943804
11.13 1.18144
11.14 1.39496
11.15 1.58007
11.16 1.73547
11.17 1.86045
11.18 1.95379
11.19 2.0147
11.2 2.04283
11.21 2.03828
11.22 2.00161
11.23 1.93117
11.24 1.83102
11.25 1.70345
11.26 1.55072
11.27 1.37537
11.28 1.18017
11.29 0.968049
11.3 0.74196
11.31 0.504411
11.32 0.25969
11.33 0.0107537
11.34 -0.239583
11.35 -0.488688
11.36 -0.734148
11.37 -0.973796
11.38 -1.20544
11.39 -1.42688
11.4 -1.63739
11.41 -1.83594
11.42 -2.02174
11.43 -2.19419
11.44 -2.35294
11.45 -2.49777
11.46 -2.62789
11.47 -2.7434
11.48 -2.84514
11.49 -2.93332
11.5 -3.00815
11.51 -3.06989
11.52 -3.11874
11.53 -3.15492
11.54 -3.17772
11.55 -3.18782
11.56 -3.18569
11.57 -3.17141
11.58 -3.145
11.59 -3.10648
11.6 -3.05585
11.61 -2.9931
11.62 -2.91708
11.63 -2.82885
11.64 -2.72856
11.65 -2.6163
11.66 -2.49221
11.67 -2.35652
11.68 -2.20953
11.69 -2.05152
11.7 -1.88227
11.71 -1.70343
11.72 -1.51581
11.73 -1.32036
11.74 -1.11821
11.75 -0.910626
11.76 -0.699035
11.77 -0.485003
11.78 -0.270467
11.79 -0.0574589
11.8 0.152034
11.81 0.35595
11.82 0.552186
11.83 0.738634
11.84 0.913221
11.85 1.07308
11.86 1.21624
11.87 1.34172
11.88 1.4481
11.89 1.53425
11.9 1.59934
11.91 1.64286
11.92 1.66468
11.93 1.66345
11.94 1.64098
11.95 1.59891
11.96 1.53863
11.97 1.46189
11.98 1.37066
11.99 1.26717
12 1.1538
12.01 1.03257
12.02 0.906921
12.03 0.779386
12.04 0.652358
12.05 0.528072
12.06 0.40856
12.07 0.295602
12.08 0.190851
12.09 0.0962373
12.1 0.0118547
12.11 -0.0618012
12.12 -0.124526
12.13 -0.176376
12.14 -0.217636
12.15 -0.248773
12.16 -0.270049
12.17 -0.282004
12.18 -0.285942
12.19 -0.282522
12.2 -0.272317
12.21 -0.255768
12.22 -0.233156
12.23 -0.204581
12.24 -0.169566
12.25 -0.127846
12.26 -0.079152
12.27 -0.0227934
12.28 0.0420481
12.29 0.116279
12.3 0.200848
12.31 0.296693
12.32 0.40573
12.33 0.528057
12.34 0.663947
12.35 0.81371
12.36 0.977387
12.37 1.15472
12.38 1.34513
12.39 1.54771
12.4 1.76214
12.41 1.98555
12.42 2.21596
12.43 2.45114
12.44 2.68859
12.45 2.92563
12.46 3.15945
12.47 3.38695
12.48 3.60427
12.49 3.80907
12.5 3.99853
12.51 4.16998
12.52 4.32096
12.53 4.44924
12.54 4.55289
12.55 4.6291
12.56 4.67596
12.57 4.69421
12.58 4.68337
12.59 4.64333
12.6 4.57437
12.61 4.47709
12.62 4.35246
12.63 4.20023
12.64 4.02285
12.65 3.82324
12.66 3.60355
12.67 3.36611
12.68 3.11342
12.69 2.84807
12.7 2.57275
12.71 2.2898
12.72 2.00269
12.73 1.71422
12.74 1.42697
12.75 1.14341
12.76 0.865865
12.77 0.5965
12.78 0.337331
12.79 0.0914323
12.8 -0.14073
12.81 -0.357874
12.82 -0.558935
12.83 -0.743068
12.84 -0.90963
12.85 -1.05817
12.86 -1.18798
12.87 -1.29796
12.88 -1.38959
12.89 -1.46305
12.9 -1.51859
12.91 -1.55656
12.92 -1.57734
12.93 -1.58137
12.94 -1.56841
12.95 -1.53886
12.96 -1.49418
12.97 -1.43493
12.98 -1.36173
12.99 -1.27526
13 -1.17625
13.01 -1.06552
13.02 -0.943346
13.03 -0.811244
13.04 -0.670791
13.05 -0.523326
13.06 -0.370334
13.07 -0.213448
13.08 -0.0544353
13.09 0.104806
13.1 0.261927
13.11 0.414761
13.12 0.561189
13.13 0.699064
13.14 0.826275
13.15 0.940791
13.16 1.04071
13.17 1.12416
13.18 1.18791
13.19 1.23234
13.2 1.25651
13.21 1.25984
13.22 1.24202
13.23 1.20314
13.24 1.14356
13.25 1.06348
13.26 0.963226
13.27 0.845622
13.28 0.712274
13.29 0.564984
13.3 0.405702
13.31 0.236485
13.32 0.0594469
13.33 -0.123459
13.34 -0.30987
13.35 -0.497503
13.36 -0.684473
13.37 -0.869033
13.38 -1.0496
13.39 -1.22476
13.4 -1.39327
13.41 -1.55346
13.42 -1.70466
13.43 -1.84642
13.44 -1.97817
13.45 -2.09945
13.46 -2.20991
13.47 -2.30926
13.48 -2.39726
13.49 -2.47264
13.5 -2.53613
13.51 -2.58769
13.52 -2.62715
13.53 -2.65434
13.54 -2.6691
13.55 -2.67128
13.56 -2.66062
13.57 -2.63601
13.58 -2.59861
13.59 -2.54848
13.6 -2.4858
13.61 -2.41085
13.62 -2.32405
13.63 -2.22594
13.64 -2.11691
13.65 -1.99758
13.66 -1.86971
13.67 -1.73452
13.68 -1.59331
13.69 -1.44755
13.7 -1.29879
13.71 -1.14868
13.72 -0.999039
